;content of D:\DATA\ab2020\Catalin\MnZnFeO4\100\Phi_MnZnFe2O4_620.raw - (Diffrac Plus V4 file)
_FILEVERSION = 3
_SAMPLE = Commander Sample ID
_+SAMPLE
_USER = Lab Manager
_GONIOMETER_CODE = 20
_STAGE_CODE = 4
; Goniometer : D8 theta/2theta, stage : Open eulerian craddle
_SAMPLE_CHANGER_CODE = 0
_ATTACHMENTS_CODE = 0
_GONIOMETER_RADIUS = 390
_FIXED_DETSLIT = 0
_MONOCHROMATOR = 0
; Incident beam monochromator : None
_BETA_FILTER = N
_ANALYZER_CODE = 0
; Received beam analyzer : None
_DATEMEASURED = 20-Jan-2020 15:38:08
_RUNTIME = 3.848059
_WL_UNIT = A
_WL1 = 1.5406
_WL2 = 1.54439
_WL3 = 1.39222
_WLRATIO = 0.5
_ANODE = Cu
_V4_INF_USER = Lab Manager
_V4_INF_SAMPLEID = Commander Sample ID
_V4_INF_CREATOR = V5Converter
_V4_INF_CREATOR_VERSION = 3.3.50.0
_V4_INF_SUBSTRATE = Si (no database)
_V4_INF_LAYER = Si (no database)

; Data for range 1
_DRIVE = COUPLED
_STEPTIME = 0.5
_STEPSIZE = 1
_STEPMODE = S
_START = -180
_THETA = 16.8276
_2THETA = 69.941
_KHI = 0.03
_PHI = -180
_X = -0.093
_Y = -0.153
_Z = 0.5965
_DETECTORSLIT = out
_AUX1 = 0.099
_AUX2 = 0.388
_TIMESTARTED = 0
_KV = 40
_MA = 40
_RANGE_WL = 1.5406
_3DPLANE = 0
_V4_PSD2THETA = 9999
_V4_PSDCHANNEL1 = 0
_V4_PSDAPERTURE = 14.325
_V4_PSDTYPE = 5
_V4_PSDFIXED = 0
_V4_COUNTERS_MASK = 1
_V4_DRIVES_MASK = 0
_V4_ENCODERS_MASK = 0
_2THETACOUNTS = 1
; 2THETA	Cnt2_D1	
-180.000000	4129.000000	
-179.000000	3514.000000	
-178.000000	2764.000000	
-177.000000	2097.000000	
-176.000000	1387.000000	
-175.000000	782.000000	
-174.000000	358.000000	
-173.000000	200.000000	
-172.000000	155.000000	
-171.000000	147.000000	
-170.000000	146.000000	
-169.000000	152.000000	
-168.000000	170.000000	
-167.000000	138.000000	
-166.000000	126.000000	
-165.000000	150.000000	
-164.000000	145.000000	
-163.000000	147.000000	
-162.000000	160.000000	
-161.000000	146.000000	
-160.000000	145.000000	
-159.000000	127.000000	
-158.000000	137.000000	
-157.000000	105.000000	
-156.000000	135.000000	
-155.000000	124.000000	
-154.000000	136.000000	
-153.000000	135.000000	
-152.000000	153.000000	
-151.000000	150.000000	
-150.000000	113.000000	
-149.000000	120.000000	
-148.000000	141.000000	
-147.000000	135.000000	
-146.000000	136.000000	
-145.000000	104.000000	
-144.000000	126.000000	
-143.000000	123.000000	
-142.000000	110.000000	
-141.000000	112.000000	
-140.000000	110.000000	
-139.000000	122.000000	
-138.000000	112.000000	
-137.000000	108.000000	
-136.000000	111.000000	
-135.000000	118.000000	
-134.000000	105.000000	
-133.000000	116.000000	
-132.000000	116.000000	
-131.000000	117.000000	
-130.000000	109.000000	
-129.000000	120.000000	
-128.000000	138.000000	
-127.000000	114.000000	
-126.000000	130.000000	
-125.000000	111.000000	
-124.000000	104.000000	
-123.000000	121.000000	
-122.000000	117.000000	
-121.000000	105.000000	
-120.000000	94.000000	
-119.000000	115.000000	
-118.000000	114.000000	
-117.000000	95.000000	
-116.000000	117.000000	
-115.000000	117.000000	
-114.000000	107.000000	
-113.000000	110.000000	
-112.000000	96.000000	
-111.000000	102.000000	
-110.000000	113.000000	
-109.000000	119.000000	
-108.000000	117.000000	
-107.000000	116.000000	
-106.000000	114.000000	
-105.000000	95.000000	
-104.000000	112.000000	
-103.000000	135.000000	
-102.000000	106.000000	
-101.000000	113.000000	
-100.000000	122.000000	
-99.000000	91.000000	
-98.000000	119.000000	
-97.000000	217.000000	
-96.000000	484.000000	
-95.000000	951.000000	
-94.000000	1546.000000	
-93.000000	1929.000000	
-92.000000	2330.000000	
-91.000000	2470.000000	
-90.000000	2452.000000	
-89.000000	2124.000000	
-88.000000	1708.000000	
-87.000000	1230.000000	
-86.000000	686.000000	
-85.000000	312.000000	
-84.000000	164.000000	
-83.000000	116.000000	
-82.000000	129.000000	
-81.000000	114.000000	
-80.000000	108.000000	
-79.000000	101.000000	
-78.000000	130.000000	
-77.000000	106.000000	
-76.000000	129.000000	
-75.000000	136.000000	
-74.000000	112.000000	
-73.000000	125.000000	
-72.000000	125.000000	
-71.000000	116.000000	
-70.000000	90.000000	
-69.000000	113.000000	
-68.000000	108.000000	
-67.000000	97.000000	
-66.000000	114.000000	
-65.000000	131.000000	
-64.000000	89.000000	
-63.000000	126.000000	
-62.000000	100.000000	
-61.000000	119.000000	
-60.000000	118.000000	
-59.000000	115.000000	
-58.000000	100.000000	
-57.000000	125.000000	
-56.000000	128.000000	
-55.000000	93.000000	
-54.000000	108.000000	
-53.000000	127.000000	
-52.000000	125.000000	
-51.000000	119.000000	
-50.000000	114.000000	
-49.000000	100.000000	
-48.000000	106.000000	
-47.000000	133.000000	
-46.000000	109.000000	
-45.000000	138.000000	
-44.000000	133.000000	
-43.000000	149.000000	
-42.000000	123.000000	
-41.000000	128.000000	
-40.000000	125.000000	
-39.000000	128.000000	
-38.000000	140.000000	
-37.000000	115.000000	
-36.000000	163.000000	
-35.000000	142.000000	
-34.000000	138.000000	
-33.000000	134.000000	
-32.000000	128.000000	
-31.000000	142.000000	
-30.000000	161.000000	
-29.000000	158.000000	
-28.000000	155.000000	
-27.000000	153.000000	
-26.000000	157.000000	
-25.000000	147.000000	
-24.000000	159.000000	
-23.000000	154.000000	
-22.000000	159.000000	
-21.000000	155.000000	
-20.000000	134.000000	
-19.000000	148.000000	
-18.000000	141.000000	
-17.000000	144.000000	
-16.000000	171.000000	
-15.000000	145.000000	
-14.000000	169.000000	
-13.000000	154.000000	
-12.000000	165.000000	
-11.000000	136.000000	
-10.000000	151.000000	
-9.000000	181.000000	
-8.000000	275.000000	
-7.000000	547.000000	
-6.000000	1058.000000	
-5.000000	1743.000000	
-4.000000	2550.000000	
-3.000000	3227.000000	
-2.000000	3844.000000	
-1.000000	4369.000000	
0.000000	4484.000000	
1.000000	3961.000000	
2.000000	3347.000000	
3.000000	2569.000000	
4.000000	1713.000000	
5.000000	993.000000	
6.000000	510.000000	
7.000000	253.000000	
8.000000	146.000000	
9.000000	143.000000	
10.000000	141.000000	
11.000000	139.000000	
12.000000	164.000000	
13.000000	148.000000	
14.000000	137.000000	
15.000000	146.000000	
16.000000	151.000000	
17.000000	125.000000	
18.000000	132.000000	
19.000000	162.000000	
20.000000	120.000000	
21.000000	139.000000	
22.000000	157.000000	
23.000000	127.000000	
24.000000	115.000000	
25.000000	148.000000	
26.000000	140.000000	
27.000000	158.000000	
28.000000	148.000000	
29.000000	156.000000	
30.000000	136.000000	
31.000000	140.000000	
32.000000	129.000000	
33.000000	146.000000	
34.000000	125.000000	
35.000000	127.000000	
36.000000	171.000000	
37.000000	126.000000	
38.000000	159.000000	
39.000000	123.000000	
40.000000	133.000000	
41.000000	125.000000	
42.000000	129.000000	
43.000000	120.000000	
44.000000	126.000000	
45.000000	127.000000	
46.000000	140.000000	
47.000000	115.000000	
48.000000	114.000000	
49.000000	117.000000	
50.000000	123.000000	
51.000000	114.000000	
52.000000	108.000000	
53.000000	130.000000	
54.000000	128.000000	
55.000000	115.000000	
56.000000	109.000000	
57.000000	113.000000	
58.000000	141.000000	
59.000000	129.000000	
60.000000	118.000000	
61.000000	109.000000	
62.000000	128.000000	
63.000000	128.000000	
64.000000	129.000000	
65.000000	111.000000	
66.000000	103.000000	
67.000000	108.000000	
68.000000	100.000000	
69.000000	120.000000	
70.000000	102.000000	
71.000000	114.000000	
72.000000	116.000000	
73.000000	102.000000	
74.000000	103.000000	
75.000000	120.000000	
76.000000	122.000000	
77.000000	94.000000	
78.000000	115.000000	
79.000000	138.000000	
80.000000	88.000000	
81.000000	111.000000	
82.000000	108.000000	
83.000000	184.000000	
84.000000	374.000000	
85.000000	824.000000	
86.000000	1450.000000	
87.000000	2139.000000	
88.000000	2566.000000	
89.000000	2767.000000	
90.000000	2757.000000	
91.000000	2414.000000	
92.000000	1882.000000	
93.000000	1220.000000	
94.000000	681.000000	
95.000000	324.000000	
96.000000	143.000000	
97.000000	109.000000	
98.000000	110.000000	
99.000000	96.000000	
100.000000	109.000000	
101.000000	103.000000	
102.000000	103.000000	
103.000000	116.000000	
104.000000	97.000000	
105.000000	87.000000	
106.000000	124.000000	
107.000000	92.000000	
108.000000	108.000000	
109.000000	107.000000	
110.000000	90.000000	
111.000000	92.000000	
112.000000	111.000000	
113.000000	103.000000	
114.000000	114.000000	
115.000000	116.000000	
116.000000	116.000000	
117.000000	105.000000	
118.000000	101.000000	
119.000000	110.000000	
120.000000	120.000000	
121.000000	99.000000	
122.000000	127.000000	
123.000000	122.000000	
124.000000	115.000000	
125.000000	120.000000	
126.000000	99.000000	
127.000000	118.000000	
128.000000	101.000000	
129.000000	109.000000	
130.000000	124.000000	
131.000000	130.000000	
132.000000	132.000000	
133.000000	117.000000	
134.000000	110.000000	
135.000000	119.000000	
136.000000	135.000000	
137.000000	139.000000	
138.000000	149.000000	
139.000000	112.000000	
140.000000	122.000000	
141.000000	150.000000	
142.000000	151.000000	
143.000000	135.000000	
144.000000	140.000000	
145.000000	128.000000	
146.000000	136.000000	
147.000000	157.000000	
148.000000	155.000000	
149.000000	132.000000	
150.000000	143.000000	
151.000000	170.000000	
152.000000	156.000000	
153.000000	140.000000	
154.000000	155.000000	
155.000000	150.000000	
156.000000	126.000000	
157.000000	143.000000	
158.000000	166.000000	
159.000000	134.000000	
160.000000	139.000000	
161.000000	142.000000	
162.000000	140.000000	
163.000000	144.000000	
164.000000	157.000000	
165.000000	142.000000	
166.000000	135.000000	
167.000000	142.000000	
168.000000	141.000000	
169.000000	124.000000	
170.000000	158.000000	
171.000000	198.000000	
172.000000	327.000000	
173.000000	603.000000	
174.000000	1067.000000	
175.000000	1805.000000	
176.000000	2619.000000	
177.000000	3408.000000	
178.000000	4200.000000	
179.000000	4123.000000	
180.000000	3928.000000	
